
 Integration of Power Spectrum (cm)
    freq(cm-1)  INT_hs[G001]   INT_s[G001]  INT_fr[G001]   INT_s[G001]  INTcmt[G001]  INTcmo[G001]  INTimv[G001]  INTcmr[G001]  INTtot[G001]
        0.0000      204.9758        0.0000       12.8589        0.0000      204.9758       12.8589        1.5822        8.3360      319.4276
       55.5940      370.7373      214.2101       36.2351        5.1682      584.9474       41.4033        5.4411       28.8760      919.2109
      111.1880      430.2147      423.0289       54.5958       19.8904      853.2437       74.4861       10.9364       56.4929     1362.4290
      166.7820      458.9666      609.3592       68.1203       50.7811     1068.3258      118.9013       18.4279       94.8518     1742.1228
      222.3761      475.6514      771.0479       78.0011      104.2035     1246.6993      182.2046       28.1598      152.4397     2095.7624
      277.9701      486.4885      875.7095       85.3399      181.6052     1362.1980      266.9450       40.1524      231.6129     2387.7106
      333.5641      494.0756      928.3806       90.9230      292.1805     1422.4561      383.1036       54.1463      344.3867     2647.4573
      389.1581      499.6772      955.2583       95.2757      435.0050     1454.9355      530.2806       69.8738      490.6318     2915.9212
      444.7521      503.9798      970.9277       98.7458      601.7807     1474.9075      700.5265       87.4429      660.1654     3200.6590
      500.3461      507.3868      981.0932      101.5675      761.6409     1488.4801      863.2085      105.2847      823.5236     3466.5283
      555.9402      510.1509      987.8113      103.9018      903.7287     1497.9622     1007.6305      124.6493      969.5863     3700.2722
      611.5342      512.4380      992.2872      105.8618     1026.3923     1504.7251     1132.2542      146.6391     1095.6706     3899.9098
      667.1282      514.3614      995.2901      107.5291     1132.4528     1509.6515     1239.9819      171.2163     1204.4722     4070.8183
      722.7222      516.0015      997.2542      108.9635     1216.8819     1513.2557     1325.8453      201.5850     1292.5684     4208.6192
      778.3162      517.4164      998.6890      110.2098     1286.7386     1516.1054     1396.9484      236.8302     1365.9856     4323.2220
      833.9102      518.6495      999.5646      111.3024     1343.4742     1518.2141     1454.7766      280.4599     1426.6088     4417.4733
      889.5043      519.7337     1000.0754      112.2676     1373.1899     1519.8091     1485.4575      329.3797     1460.3995     4470.6164
      945.0983      520.6943     1000.3359      113.1263     1387.2091     1521.0303     1500.3354      386.8753     1479.0498     4500.4342
     1000.6923      521.5514     1000.4893      113.8949     1394.6576     1522.0408     1508.5525      448.7333     1490.5898     4519.2496
     1056.2863      522.3209     1000.5750      114.5870     1398.8521     1522.8959     1513.4391      520.1609     1498.5385     4532.4319
     1111.8803      523.0154     1000.6441      115.2132     1401.5715     1523.6595     1516.7847      596.3880     1504.4042     4542.3493
     1167.4743      523.6455     1000.6683      115.7824     1403.3876     1524.3137     1519.1700      679.9848     1509.0085     4550.2071
     1223.0683      524.2196     1000.6977      116.3021     1404.6558     1524.9173     1520.9579      767.0813     1512.7061     4556.6289
     1278.6624      524.7450     1000.7208      116.7785     1405.6569     1525.4658     1522.4353      852.0722     1515.7935     4562.0547
     1334.2564      525.2276     1000.7221      117.2166     1406.3533     1525.9497     1523.5699      943.1132     1518.3860     4566.6406
     1389.8504      525.6723     1000.7313      117.6209     1406.8731     1526.4037     1524.4939     1031.9276     1520.4879     4570.4484
     1445.4444      526.0836     1000.7474      117.9951     1407.2796     1526.8310     1525.2748     1113.6978     1522.2577     4573.7213
     1501.0384      526.4605     1000.7474      118.3425     1407.5862     1527.2079     1525.9288     1189.3865     1523.6773     4576.3965
     1556.6324      526.8152     1000.7533      118.6659     1407.8325     1527.5685     1526.4984     1256.5031     1524.8288     4578.6485
     1612.2265      527.1458     1000.7626      118.9676     1408.0460     1527.9084     1527.0136     1312.8540     1525.7766     4580.5674
     1667.8205      527.4540     1000.7626      119.2497     1408.2063     1528.2165     1527.4560     1363.2916     1526.5686     4582.2069
     1723.4145      527.7433     1000.7691      119.5141     1408.3421     1528.5124     1527.8562     1401.0373     1527.2125     4583.6088
     1779.0085      528.0149     1000.7815      119.7624     1408.4705     1528.7964     1528.2329     1428.2387     1527.7484     4584.8333
     1834.6025      528.2703     1000.7832      119.9960     1408.5723     1529.0535     1528.5683     1448.2986     1528.1971     4585.8882
     1890.1965      528.5109     1000.7956      120.2162     1408.6594     1529.3064     1528.8756     1464.5739     1528.5857     4586.8476
     1945.7906      528.7379     1000.8105      120.4241     1408.7486     1529.5485     1529.1726     1476.5277     1528.9383     4587.7375
     2001.3846      528.9525     1000.8174      120.6206     1408.8194     1529.7699     1529.4401     1485.7473     1529.2525     4588.5396
     2056.9786      529.1557     1000.8333      120.8068     1408.8851     1529.9890     1529.6919     1493.5872     1529.5380     4589.2952
     2112.5726      529.3483     1000.8516      120.9834     1408.9557     1530.1999     1529.9391     1500.1779     1529.8129     4590.0230
     2168.1666      529.5312     1000.8630      121.1511     1409.0138     1530.3942     1530.1649     1505.6071     1530.0643     4590.6907
     2223.7606      529.7051     1000.8825      121.3105     1409.0689     1530.5875     1530.3794     1510.2293     1530.2962     4591.3278
     2279.3547      529.8706     1000.9043      121.4623     1409.1277     1530.7748     1530.5900     1513.8905     1530.5193     4591.9429
     2334.9487      530.0282     1000.9198      121.6071     1409.1769     1530.9481     1530.7840     1516.8410     1530.7259     4592.5124
     2390.5427      530.1787     1000.9427      121.7452     1409.2268     1531.1214     1530.9720     1519.3054     1530.9213     4593.0651
     2446.1367      530.3224     1000.9674      121.8771     1409.2793     1531.2898     1531.1564     1521.3217     1531.1110     4593.6021
     2501.7307      530.4598     1000.9870      122.0033     1409.3245     1531.4467     1531.3278     1522.9705     1531.2896     4594.1053
     2557.3247      530.5912     1001.0130      122.1240     1409.3718     1531.6043     1531.4958     1524.3803     1531.4624     4594.6005
     2612.9187      530.7172     1001.0408      122.2397     1409.4210     1531.7580     1531.6607     1525.4907     1531.6297     4595.0819
     2668.5128      530.8379     1001.0637      122.3507     1409.4646     1531.9016     1531.8153     1526.4693     1531.7893     4595.5368
     2724.1068      530.9538     1001.0928      122.4571     1409.5103     1532.0466     1531.9674     1527.2759     1531.9434     4595.9853
     2779.7008      531.0651     1001.1234      122.5594     1409.5578     1532.1885     1532.1172     1528.0037     1532.0945     4596.4248
     2835.2948      531.1720     1001.1497      122.6577     1409.6008     1532.3217     1532.2585     1528.6003     1532.2393     4596.8417
     2890.8888      531.2749     1001.1817      122.7523     1409.6460     1532.4566     1532.3984     1529.1396     1532.3802     4597.2554
     2946.4828      531.3740     1001.2151      122.8434     1409.6933     1532.5891     1532.5367     1529.6147     1532.5192     4597.6626
     3002.0769      531.4694     1001.2444      122.9312     1409.7365     1532.7138     1532.6676     1530.0381     1532.6529     4598.0503
     3057.6709      531.5614     1001.2793      123.0157     1409.7822     1532.8407     1532.7980     1530.4153     1532.7839     4598.4371
     3113.2649      531.6501     1001.3155      123.0973     1409.8298     1532.9655     1532.9271     1530.7699     1532.9136     4598.8188
     3168.8589      531.7357     1001.3479      123.1761     1409.8739     1533.0836     1533.0501     1531.1031     1533.0389     4599.1839
     3224.4529      531.8184     1001.3856      123.2522     1409.9208     1533.2040     1533.1730     1531.3979     1533.1622     4599.5495
     3280.0469      531.8984     1001.4245      123.3258     1409.9692     1533.3229     1533.2950     1531.6796     1533.2844     4599.9110
     3335.6410      531.9756     1001.4600      123.3969     1410.0147     1533.4356     1533.4116     1531.9437     1533.4033     4600.2584
     3391.2350      532.0504     1001.5006      123.4657     1410.0631     1533.5510     1533.5288     1532.1923     1533.5206     4600.6075
     3446.8290      532.1228     1001.5424      123.5323     1410.1130     1533.6652     1533.6453     1532.4393     1533.6372     4600.9537
     3502.4230      532.1929     1001.5809      123.5968     1410.1603     1533.7738     1533.7571     1532.6635     1533.7510     4601.2874
     3558.0170      532.2608     1001.6245      123.6593     1410.2105     1533.8854     1533.8699     1532.8925     1533.8639     4601.6240
     3613.6110      532.3267     1001.6693      123.7200     1410.2622     1533.9960     1533.9822     1533.1124     1533.9762     4601.9584
     3669.2050      532.3906     1001.7110      123.7788     1410.3117     1534.1016     1534.0905     1533.3182     1534.0864     4602.2820
     3724.7991      532.4525     1001.7578      123.8358     1410.3643     1534.2103     1534.2001     1533.5268     1534.1961     4602.6096
     3780.3931      532.5127     1001.8057      123.8912     1410.4183     1534.3184     1534.3095     1533.7241     1534.3054     4602.9357
     3835.9871      532.5712     1001.8507      123.9450     1410.4703     1534.4219     1534.4153     1533.9172     1534.4130     4603.2524
     3891.5811      532.6279     1001.9008      123.9973     1410.5257     1534.5287     1534.5230     1534.1157     1534.5206     4603.5740
     3947.1751      532.6831     1001.9521      124.0482     1410.5823     1534.6352     1534.6304     1534.3169     1534.6280     4603.8948
     4002.7691      532.7368     1002.0006      124.0976     1410.6373     1534.7374     1534.7349     1534.5132     1534.7342     4604.2074
     4058.3632      532.7890     1002.0543      124.1457     1410.6958     1534.8433     1534.8415     1534.7075     1534.8407     4604.5261
     4113.9572      532.8144     1002.0818      124.1691     1410.7257     1534.8962     1534.8948     1534.8057     1534.8939     4604.6852
